s,v,beta,omega,n,xi,delta,F_dr
0.0,10.0,0.0,0.0,0.0,0.0,0.14575327156304824,369.457679729359
3.0,10.043575565549892,8.722585368267881e-05,0.001246081771551888,1.3032878928533932e-12,-3.1191423048276626e-05,0.14615903885523424,368.8311948692157
6.0,10.086766589228601,-0.00019917987755384192,0.0024850496553576584,0.00016810162096286976,0.0002949412454343445,0.14630000925976003,368.24311514636116
9.0,10.129587623199384,-0.000849980065252748,0.0037100300315091083,0.00045538287772750027,0.000974540845820256,0.1461428031046288,367.688134719977
12.0,10.172051609589479,-0.0018542222308403555,0.004914428661586694,0.0008290615304762629,0.0020167494312105533,0.14571666613538672,367.1646284724639
15.0,10.214170728100942,-0.003199358708607524,0.006091960255083588,0.001316638336677078,0.003412636356301193,-0.5232682381712281,366.72810940184235
18.0,10.255742757063127,-0.005015662658162106,0.005132237408012247,0.0019564650125002297,0.005151479942466298,-0.5232069416357009,366.3259621650853
21.0,10.297010814640148,-0.0065258004325608665,0.004144578788871717,0.0023639128837424305,0.0066053105413907895,-0.5231194557927303,365.93464092696297
24.0,10.3379810427256,-0.007727368472785961,0.0031350538679890557,0.0026024408871900785,0.007768275954701532,-0.5229874850978027,365.5554566439467
27.0,10.378659942991112,-0.008619695901123776,0.0021096273022194207,0.002725162142792715,0.008636470555470586,0.14430018101918332,365.2171096119349
30.0,10.419278174724187,-0.009063746155777234,0.0031473957645668463,0.0027754856205095355,0.009207817783569909,-0.5224328277874808,364.87498393939524
33.0,10.45940292128679,-0.009940060826025521,0.0021050717858240513,0.003207696345867918,0.010078693333879748,-0.521874345261633,364.5062694212516
36.0,10.499249202574209,-0.010506081724544758,0.001052855950013975,0.003623589882721323,0.01065006004583987,-0.5203479282789601,364.1508669070072
39.0,10.53882409738004,-0.010764425300553744,-4.330892312268178e-06,0.0040555207215961534,0.010921418976054616,-0.2834930677697897,363.8091093061399
42.0,10.578261892887006,-0.010732753794102401,-0.0012709712080202563,0.004526497267501396,0.010893792882753366,-0.18569719549669433,363.481260862886
45.0,10.6175053954385,-0.010348861658443434,-0.002623779778990748,0.005009609954915101,0.010510044160937078,-0.17052474777415005,363.167471059909
48.0,10.65650648361411,-0.009588660621033328,-0.003970430077604294,0.0054931528972589645,0.009748355084444407,0.5230452498883532,362.83965959981066
51.0,10.695039035949037,-0.008327800986157645,-0.0032879057923564017,0.005972231781905322,0.00861315539880939,0.5231322123746268,362.5456688139919
54.0,10.733331096425783,-0.007274880815073071,-0.0025869667987220373,0.006828287015534659,0.0076764354096700155,-0.15802917215586942,362.28902696886587
57.0,10.771613178199944,-0.006561687799451853,-0.0038690847947790118,0.008032939610894609,0.006942066505721283,-0.15647505167026127,361.9993997584296
60.0,10.809658714967787,-0.005500609797133338,-0.0051314960968349395,0.009174065167003895,0.005856244800708198,0.5232611207511029,361.695741746994
63.0,10.847248682957677,-0.003974203073542214,-0.004383731331824937,0.010240960336866242,0.004426808365645052,-0.1527150670807737,361.44311125726074
66.0,10.88483509422639,-0.002801250814931143,-0.0055914998205041444,0.01159876377895172,0.0032120999011822945,-0.1513645551903082,361.20320494239013
69.0,10.922203306963238,-0.0013099041737427838,-0.006772050843217246,0.01283129978838606,0.0016717480656427714,-0.14979061557289916,360.9823892955162
72.0,10.959359831387983,0.00048750137036850425,-0.007920104577742787,0.013916821591499894,-0.00018456614586304025,-0.14798816996673422,360.7811889615212
75.0,10.996311050854631,0.0025774671039364145,-0.009030681832320524,0.014825619029958706,-0.002345881289652771,-0.14595082544109753,360.60081277133145
78.0,11.03306336231556,0.004945436726726113,-0.01009916496461824,0.015520370201716392,-0.0047999255027341165,-0.14368092372072064,360.442385840789
81.0,11.069623137577254,0.007575916619540571,-0.011121370168668286,0.01595689995031014,-0.0075332203732421145,-0.14118558008425405,360.3067978683007
84.0,11.105996660344202,0.010452613233095064,-0.012093628823111682,0.01608498754428345,-0.01053137746300683,-0.1384749303753904,360.1947565189142
87.0,11.142190084312402,0.01355858930761692,-0.013012871445520397,0.01584869695906849,-0.013779263389413004,-0.13556126417954661,360.10685981237145
90.0,11.178209415313779,0.01687643868263855,-0.013876706446586276,0.015186680569424906,-0.017261074415900267,-0.1324139091894003,359.9794788511685
93.0,11.214046197453381,0.02038849862969137,-0.014683489680074525,0.01403278349217773,-0.020960504883286678,-0.12913598966843273,359.88661913528665
96.0,11.249708349988396,0.024077020460792437,-0.015432354738453747,0.01231677962550827,-0.02486092398859315,-0.12570000274749774,359.7804086199836
99.0,11.285192933823742,0.02792440778486063,-0.016123239958748557,0.009965089169163359,-0.028945527384715217,-0.12212210730990797,359.66060885928823
102.0,11.320496874173537,0.0319134136388344,-0.01675686677333568,0.006901756105838717,-0.03319769889914156,-0.11841861340976437,359.51136295753923
105.0,11.355613540274211,0.03602734450149056,-0.017334689191969503,0.0030489319143931805,-0.037601369081401416,-0.11460572529319998,359.3468905920308
108.0,11.390539447592696,0.04025021980844996,-0.017858813930769192,-0.0016731043317785037,-0.04214104917235621,-0.11069934116268243,359.17887149268927
111.0,11.425273671443763,0.044566916887744876,-0.018331897342513833,-0.007345549247226053,-0.04680180894057028,-0.1067148812837127,358.9965395224009
114.0,11.459812918890293,0.048963302658377617,-0.018757027729154493,-0.014050177131210203,-0.051569403208516176,-0.10266714447493733,358.7968312955264
117.0,11.494153265374242,0.0534263140088279,-0.01913760200798052,-0.021868426461635174,-0.05643064302651011,-0.09857022224938561,358.58298952047767
120.0,11.52829155022213,0.05794400249678554,-0.019477205153298243,-0.030881358804206536,-0.06137363360302884,-0.09443745597233184,358.35179619928107
123.0,11.562223977086882,0.06250555846630232,-0.01977949943103864,-0.04117019740851759,-0.06638735036524773,-0.09028142817227383,358.0994970109089
126.0,11.595946017402081,0.06710130333123797,-0.020048128306768758,-0.05281552162162885,-0.07146152884972436,-0.08611400707764448,357.8256486170381
129.0,11.629453140769824,0.07172265409417258,-0.020286637733174455,-0.06589615421297292,-0.07658717564170478,-0.08194645565519636,357.5288329397212
132.0,11.662740609536558,0.07636207385135259,-0.020498415561875555,-0.0804896879708315,-0.08175646793008567,-0.07778960388923695,357.20725792693906
135.0,11.695803403533672,0.0810130087447803,-0.020686648257880993,-0.0966728593505663,-0.08696233573250794,-0.07365407299162587,356.8597320739869
138.0,11.72863635249117,0.08566981516143723,-0.020854293066259282,-0.11452085802558933,-0.09219854680989743,-0.06955052458805513,356.4846432386715
141.0,11.76123404783592,0.09032768373754213,-0.02100406320703265,-0.13410710966370398,-0.09745978076231991,-0.06548993351554155,356.0813449686094
144.0,11.793591048521046,0.09498255997176924,-0.021138423477302354,-0.15550350888811618,-0.10274144677059095,-0.0614839308420384,355.64918550648486
147.0,11.825701877187461,0.0996310672798743,-0.02125959372468877,-0.1787803436281287,-0.10803958617118108,-0.05754527285250239,355.18785748935494
150.0,11.857561089406698,0.10427043246480547,-0.021369557886195847,-0.20400615810722608,-0.11335085492812527,0.5231513178025115,354.6970952451167
153.0,11.889019990048775,0.10900961412306052,-0.019617966090873802,-0.23124778685781644,-0.11867247582188967,0.5231186841070393,354.17855090626233
156.0,11.920219601547386,0.11326724572670979,-0.01786164914684285,-0.26023683360811617,-0.1235348498592868,0.5230806175409073,353.6291328128733
159.0,11.951158445763593,0.11704812345693819,-0.01610263228591922,-0.29104022687460784,-0.1279392987379584,0.5230360077959356,353.04975084395886
162.0,11.981835624060002,0.12035738401825381,-0.014342472091376174,-0.32371447320507996,-0.13188755442763817,0.5229834909418487,352.44179328791756
165.0,12.01225084636721,0.12320038818937332,-0.012582370584810734,-0.358305866193622,-0.13538166911260202,0.522921418980311,351.8068377402396
168.0,12.042404403632531,0.12558263428940883,-0.01082326224314113,-0.39485077498377025,-0.13842402817418176,0.5228478485404697,351.14649559404694
171.0,12.072297111722838,0.1275096943113466,-0.009065880671679438,-0.43337623121006164,-0.14101730069146556,0.5227605649225064,350.46226545167207
174.0,12.101930228591273,0.12898716746328784,-0.007310810175339751,-0.473900558304341,-0.14316426448842454,0.5226571364330127,349.7554688485936
177.0,12.131305361929583,0.13002064708332914,-0.005558526239366927,-0.5164336143488172,-0.14486758195756005,0.5225349658751308,349.0268477904684
180.0,12.160424300451202,0.1306156988712488,-0.0038094278489290844,-0.5609764638561084,-0.1461300120194902,0.5223912558925033,348.2764155267836
183.0,12.189288826423091,0.13077784759896227,-0.0020638636534858097,-0.6075217613585315,-0.14695572347392014,0.5222227502499691,347.5035475557939
186.0,12.217900549716228,0.1305125695922587,-0.0003221541933937564,-0.6560581136805071,-0.14735063304952575,0.5220250235142729,346.7070461594212
189.0,12.24626074957435,0.12982529034349202,0.0014153881466359565,-0.7065754624346445,-0.14732089297948883,0.5217910485436069,345.88555018064017
192.0,12.274370300828378,0.12872138651501208,0.003148441133766992,-0.759065927961302,-0.1468714214424075,0.5215165437349543,345.03662207971934
195.0,12.302229419139673,0.12720619431288707,0.0048766501886240874,-0.8135202411312034,-0.14600544156986403,0.5211518237054668,344.158025640234
198.0,12.329837702501266,0.12528502187845642,0.006599644909248994,-0.8699227879274178,-0.1447257550677626,0.5196487775766743,343.24751615195134
201.0,12.357194568544363,0.12296319750944566,0.008317833162673066,-0.9282504407615972,-0.14303564793642834,0.49712467090886747,342.37658147345775
204.0,12.384322727824363,0.12024653764575784,0.010047958078642203,-0.988473943429877,-0.14093815988008435,0.4237310705565134,341.6306767319615
207.0,12.411276760455928,0.11713798980430781,0.011834693693025226,-1.0505557036395394,-0.13843203537056295,0.36139625465528213,340.84830646856915
210.0,12.438050401849052,0.11362733442951523,0.013671074324421686,-1.1144455161524618,-0.13550529787496154,0.32343590425480667,340.0272885240097
213.0,12.464628587117017,0.10970520663671067,0.015532337414581964,-1.1800879049951916,-0.13214785377142313,0.30099561331369856,339.16750735895477
216.0,12.49099914275354,0.10536865110744599,0.017400591549086943,-1.247425206378637,-0.12835561396439404,0.28606384217606007,338.2697915577036
219.0,12.517153662535344,0.1006194591236007,0.01926615067404527,-1.316396346773557,-0.12412858459678132,0.2748067064437316,337.3356370770014
222.0,12.54308575373318,0.09546190915294706,0.02112297750452685,-1.386934892558011,-0.11946909066382433,0.26543839500844424,336.3670046390727
225.0,12.568790040892061,0.08990174601337068,0.022966207146613574,-1.4589685524183853,-0.11438112859275675,0.25706802545371227,335.3661563210726
228.0,12.594261689808151,0.08394584146142489,0.024790987184840282,-1.5324197795521528,-0.10886964779862371,0.24921714555603477,334.3354439031545
231.0,12.61949615051038,0.07760216768824604,0.02659184909289818,-1.607205243855892,-0.10294044632479972,0.24161367265853068,333.27711457204913
234.0,12.644488984917391,0.07087993271660749,0.028362283702387983,-1.6832350940430403,-0.09660082659438805,0.23409739746521518,332.19326521323393
237.0,12.669235730680262,0.0637898221490045,0.03009440390697922,-1.7604137609394137,-0.08985971841785981,0.22657297803896906,331.08583970935314
240.0,12.693731783426232,0.056344320051453116,0.03177867376725553,-1.8386403906802615,-0.08272761059275367,0.21898583655270437,329.9566107715802
243.0,12.717972290866552,0.04855808406294681,0.033403740045979784,-1.917808132613111,-0.07521712421838658,-0.5226286333070963,328.7903442283752
246.0,12.741755762210767,0.04035724913637136,0.03328971212550624,-1.9978040231509189,-0.06734358979731075,-0.5226408613386742,327.59897696741285
249.0,12.765272887723015,0.03224598074443714,0.03308962413223926,-2.078782875153766,-0.059517740350193006,-0.5226445148555624,326.41530663375016
252.0,12.788521354954108,0.024243721300014807,0.03279327530535388,-2.160619003307194,-0.051759500200743984,-0.5226396438992146,325.241697396065
255.0,12.811499257198435,0.016372013272842368,0.03239229322502903,-2.243188163532589,-0.04409109044535138,-0.522625856435883,324.08043943595334
258.0,12.834205148473103,0.008654001784592302,0.031880984035497995,-2.326368139867898,-0.03653651730695634,0.17470193782006332,322.93620037532133
261.0,12.856812127021408,0.0012045307876105418,0.03292327293412251,-2.410039293380741,-0.02912095326365317,0.1693156760755949,321.81064838718504
264.0,12.879141654087126,-0.006432285244026469,0.033851813060573915,-2.4938127538711115,-0.02148123987841626,0.16478684053214537,320.694662695644
267.0,12.901191751292135,-0.014228879737869625,0.034664895076852796,-2.5775780557496355,-0.013644628884686861,0.160775176180439,319.58906862728816
270.0,12.922960613552426,-0.022157792019782335,0.035364533689992206,-2.6612237852359883,-0.005638595732570895,0.15789175936025301,318.49949765352267
273.0,12.944447083189875,-0.030192536933545355,0.03595579696960963,-2.744638563310005,0.002510115335487431,0.15762396682667315,317.42110334383074
276.0,12.965648249591395,-0.03830829840982125,0.03644552910784077,-2.827711781172318,0.010776158555220001,0.16582214151731056,316.3595894221941
279.0,12.986559188000943,-0.04648245671340978,0.036838023003906914,-2.9103344236824333,0.019135844998279115,-0.5218823893918877,315.3184450460659
282.0,13.007064224479224,-0.054782005688387723,0.03550883543181172,-2.9924006911832404,0.02756652635776262,-0.5216403437414003,314.29791607774183
285.0,13.027294141304514,-0.06272101124629494,0.03411620985926753,-3.0740739310581375,0.035670924453925286,-0.521304355409679,313.30415363062843
288.0,13.04725288855039,-0.07028890773304262,0.03267314451920126,-3.155251302566545,0.04343557032992462,-0.5208631730659123,312.3383782437482
291.0,13.066945346501589,-0.07747802508676038,0.031190401979463985,-3.235838679418007,0.05085004603208778,-0.5196140809336557,311.4016898170824
294.0,13.086377497957361,-0.08428307726405074,0.02967619204541795,-3.315750183592431,0.05790644677153175,-0.4300284749541745,310.49512937256065
297.0,13.105594113916094,-0.09070382281790303,0.02807123980163157,-3.3949077964399463,0.06459879240033209,-0.34542205615666893,309.61979964696417
300.0,13.124603790550971,-0.09672322493659219,0.026375651547554606,-3.4732507286550978,0.07090751282684628,-0.30159530010394175,308.7767406314542
303.0,13.14339730668447,-0.10232239128630746,0.024626492689595984,-3.55072580964755,0.0768129766029445,-0.28388840136549087,307.9669965766933
306.0,13.161970071761798,-0.10749135047943344,0.02285227149338899,-3.6272820914141164,0.08230404395448554,-0.27674455573270784,307.19165222160154
309.0,13.180325197475693,-0.11222738253092596,0.021065602832657567,-3.70287210588569,0.08737640492863082,-0.27412553509064574,306.451751082848
312.0,13.198469431221177,-0.11653087386036172,0.01927243814927511,-3.7774531568043486,0.09202862682079219,0.5227568414547805,305.6806818243496
315.0,13.2161836093625,-0.12032118253993879,0.019057078394806293,-3.8509880419935407,0.09626025357446218,0.5228614965862503,304.9517512786121
318.0,13.233691055658547,-0.1240430317380128,0.018837947603089853,-3.9231988014474153,0.1004308077713693,0.5229420004328321,304.23597592599396
321.0,13.25099514039969,-0.1276962272730695,0.018615736422720047,-3.9940632505041918,0.10453986940955544,0.5230060871105148,303.53357385393923
324.0,13.268099290269515,-0.1312807185538108,0.01839104238410009,-4.063559906159948,0.1085869036693509,0.5230586431610718,302.84475413793893
327.0,13.285006982937787,-0.1347965763306597,0.018164382448517216,-4.131668752398017,0.11257135011773929,0.5231027963567374,302.16977107482916
330.0,13.301721744391438,-0.13824397195211507,0.017936203801147417,-4.198371642784689,0.11649301790411674,0.523140597852947,301.5088715738948
333.0,13.3182471482651,-0.14162316186587628,0.017706892968983694,-4.263651503970845,0.12035195248883214,0.5231734385045205,300.8622489952468
336.0,13.334586810179266,-0.14493447512224017,0.01747678362138257,-4.327491906227814,0.12414815669838015,0.5232022977717535,300.23004981411714
339.0,13.350744380063883,-0.14817830201178653,0.017246163350934648,-4.389877419193315,0.12788146728275274,0.5232278914167701,299.6124224471539
342.0,13.366723534315902,-0.15135508234145226,0.017015279685378457,-4.4507942675574075,0.13155183375548798,0.5232507601844352,299.00956232342685
345.0,13.382527977177235,-0.15446529526766312,0.016784345319849948,-4.510230119337775,0.13515955613069924,0.5232713244364054,298.42161588501597
348.0,13.398161439799281,-0.15750945362860588,0.016553542456811163,-4.568173188892667,0.13870486658008366,0.5232899181997721,297.84865305551904
351.0,13.413627666926502,-0.16048809783097423,0.016323026669561206,-4.62461254861891,0.14218783762699017,0.5233068113906131,297.2908060975473
354.0,13.428930416663665,-0.16340178790834692,0.016092930452382973,-4.679538651588954,0.14560882757740767,0.5233222256221463,296.7481627414192
357.0,13.444073459951555,-0.16625110040296323,0.015863366046827986,-4.732942565045114,0.14896810292568952,0.5233363449195305,296.2207641044975
360.0,13.459060574341667,-0.16903662480316237,0.01563442796564348,-4.784816306174412,0.15226569764373546,0.5233493227710703,295.70892751083886
363.0,13.473895551676385,-0.1717589514548771,0.015406195883438348,-4.835153434359425,0.1555031821908775,0.5233612887809378,295.21301278998124
366.0,13.488582195963149,-0.17441866718962756,0.01517873674614466,-4.883944423098927,0.1586840151290119,0.5233723542086322,294.7330152009851
369.0,13.503124305719858,-0.1770163630368691,0.014952105715136051,-4.931171158664121,0.16181142812880642,0.5233826149324922,294.2687285940011
372.0,13.517525663504028,-0.1795526371114259,0.014726347232778195,-4.976807718514504,0.16488730736104748,0.5233921536519557,293.81995746906836
375.0,13.531790034213799,-0.18202809165883918,0.014501496365101929,-5.020824411620734,0.1679123483466154,0.5234010418446262,293.3866322927939
378.0,13.545921168451583,-0.1844433274216903,0.014277580236386716,-5.063191297614309,0.17088687461032726,0.5234093416783259,292.96875794946646
381.0,13.559922803729428,-0.1867989399224635,0.01405461921258417,-5.103879260904925,0.17381134093770598,0.5234171077326812,292.5663218396241
384.0,13.573798668111733,-0.18909551956473533,0.013832627658083269,-5.142859622383069,0.17668602756874027,0.5234243880264676,292.17932100665513
387.0,13.587552480078477,-0.19133365030944355,0.01361161472198658,-5.1801046420554515,0.1795111037874805,0.5234312249119735,291.807823502087
390.0,13.601187954638943,-0.19351390760657197,0.013391585108793787,-5.215587814812375,0.1822868966782881,0.5234376559568679,291.451898281271
393.0,13.6147088028534,-0.19563685772329029,0.013172539669094025,-5.249283372040857,0.18501390118964783,0.5234437146582861,291.11155155968174
396.0,13.628118724283102,-0.19770305804457966,0.01295447584697991,-5.28116576171664,0.18769260585929687,0.5234494309963896,290.7867611000934
399.0,13.6414214063325,-0.19971305741527653,0.012737388053318624,-5.311209651540803,0.19032329267543624,0.5234548318056046,290.47747776910956
402.0,13.65462051644077,-0.2016673953761728,0.012521268105453502,-5.339390514861071,0.19290615468686223,0.5234599411482572,290.18372048398516
405.0,13.667719709180117,-0.2035666009620475,0.01230610565548133,-5.365684858464534,0.19544150806289032,0.5234647807313824,289.90544457177464
408.0,13.680722616470756,-0.20541119297842186,0.012091888465629749,-5.390069826249301,0.19792971575179497,0.5234693701860071,289.6425777746837
